info id 'SCAN 12: solar spectrum                                              '
info wref     9002.066758
info delw    0.41590306190E+01
length   4096
readdata (8f10.4)                                                    
  151.7277  168.4465  179.2070  168.9369  175.3771  145.5712  182.1208  196.0025
  184.1670  159.2013  174.5754  211.5419  197.7821  167.6733  209.3142  191.8240
  200.6983  183.8512  206.2009  200.7205  211.7915  218.7671  194.9931  225.1900
  211.3842  211.8411  218.4789  241.9692  232.9328  216.4034  227.5403  236.7958
  229.8339  219.9650  241.3916  250.3873  218.8087  265.3359  257.9576  270.6557
  263.0511  253.8187  264.6204  265.4880  258.8426  280.6320  277.7427  238.5934
  279.8484  254.6961  286.7652  287.4794  277.4119  290.2965  287.6241  277.1092
  272.1881  299.5538  301.1970  271.3456  304.2715  296.6064  309.4728  312.4151
  290.7191  310.9959  318.2821  305.4427  322.5576  323.6602  327.4087  321.1954
  305.0110  318.4678  333.8767  335.8622  306.1233  334.4681  337.6305  340.4415
  337.6331  339.2189  345.1324  329.8325  310.8259  335.9410  336.1364  352.3643
  353.8247  356.4281  334.1413  360.4061  363.1555  362.5253  366.8159  370.1736
  370.2974  364.4765  377.3524  379.8276  383.4376  383.9114  377.2325  381.3853
  396.7247  399.7088  373.5266  392.2430  407.1825  411.2124  414.8492  417.3364
  418.5832  420.2989  425.1983  426.8477  426.7372  429.0172  423.8916  436.5555
  438.5450  440.1918  441.0818  445.3745  446.8939  449.5245  449.8468  454.7953
  455.3273  460.0551  461.0669  454.1158  465.1805  468.2771  451.7397  454.4685
  472.9792  476.5690  477.5517  477.5021  482.8090  483.3417  480.6088  487.3683
  489.5272  486.4713  493.6672  494.7975  487.2172  498.5864  501.0103  502.6747
  495.9745  484.5417  507.7874  505.8884  511.1089  509.6043  510.0320  497.0046
  511.1338  518.3781  512.1193  502.3468  523.2496  524.3063  522.0093  525.9388
  527.6123  524.2297  528.5809  532.3145  523.0835  532.1929  535.3248  531.8377
  536.0242  538.8466  538.1939  540.3723  538.8323  542.4175  542.4762  545.7161
  537.0185  542.7169  540.8540  549.6147  527.0339  546.2578  551.8931  551.8265
  553.1931  551.0583  541.1257  555.2904  556.7559  557.5028  557.1401  556.4216
  554.9981  560.4889  558.5137  552.8173  561.9141  540.5790  561.3672  562.5403
  564.8730  563.1598  553.2563  560.8456  561.0715  565.3560  566.0558  567.1793
  563.9123  556.9816  563.2167  561.0809  565.7175  563.3852  566.0052  560.4837
  550.1213  561.3854  551.0551  517.8745  521.2219  554.2100  557.4288  559.0598
  567.9691  569.3911  563.6570  557.0925  570.1833  570.6813  575.0945  570.2681
  567.3526  562.4919  573.6053  568.0881  572.8698  568.7281  575.4457  572.0388
  574.9218  571.8961  570.0309  568.5632  571.6327  566.2751  573.3381  574.0008
  561.6076  559.0873  569.7363  571.5219  566.2125  567.7833  568.8517  569.4965
  551.8636  567.7673  545.1445  563.7737  568.7223  566.6016  544.3924  549.0711
  564.8909  557.9139  563.4396  561.1704  525.0004  544.6043  542.3384  556.5441
  531.2611  558.3303  481.7410  550.8411  528.0609  532.9614  552.3854  554.2023
  433.1134  543.3555  467.9433  490.0854  517.6342  461.0226  495.3259  513.2848
  531.7436  495.4588  441.7002  433.5993  469.0800  461.2459  521.6677  462.7291
  393.3925  477.5397  495.3249  480.9522  489.5354  540.5587  465.0995  508.2456
  529.3294  465.3080  493.5878  520.5797  486.2667  508.7283  493.4766  446.3249
  525.5617  423.9180  461.4891  328.5914  413.4522  426.0730  437.7688  408.7040
  364.1057  422.2815  272.7425  504.0842  442.5549  332.9294  293.5483  397.6546
  434.9629  366.9816  313.1533  440.0201  326.1748  322.9658  190.6241  390.9317
  343.8146  334.2509  471.8300  348.8027  279.3908  247.6584  426.6443  223.7047
  310.7979  352.4175  203.9507  378.1418  295.5674  402.4864  277.2216  333.4507
  211.8930  170.3479  347.5890  427.7289  397.5942  295.3746  162.5693  187.9554
  355.3908  387.5664  339.5201  132.0484  320.2992  343.6963  218.5114  325.1339
  215.2172  267.9133  196.0139  333.2223  359.7133  176.2516  122.1973  351.7755
  312.4543  108.5176  339.6457  319.8461  291.9116  324.0647  223.9098  335.8203
  291.2618  307.7327  378.4491  386.0087  242.2360  347.0990  119.4860  196.3981
  250.3691  136.0979  162.8912  330.5379  133.2802  144.3016  289.4602  316.9576
   18.4979  195.9581  176.5460  159.0332  286.5204  166.3546  225.5002  246.7384
  176.9625  352.4642  214.4207  344.6198  296.9920  314.7049  318.4480  353.8591
  314.3788  405.0600  304.6426  410.7794  399.9973  429.2507  431.4778  373.4494
  406.4149  389.0894  392.5276  400.3565  378.4618  398.8695  365.9845  404.6437
  367.8768  390.8701  422.8975  371.7022  379.5050  391.2975  387.5503  412.8386
  430.9839  394.7765  353.1392  411.6588  416.1330  338.8521  382.7088  320.9919
  291.8264  362.3684  404.6850  373.2546  382.9170  280.4474  276.5502  375.0475
  374.7409  384.2347  332.3182  303.9396  287.9472  352.1815  387.8496  390.8700
  278.0917  396.8257  388.8227  262.9883  393.7320  281.2215  364.6049  319.4137
  334.2426  297.6069  360.1357  268.7010  384.4420  295.3438  317.5168  386.0264
  306.3528  364.5977  395.9715  339.8986  377.6544  396.0972  345.6031  381.2854
  383.6297  347.8598  366.9789  291.5067  309.0247  284.9161  336.3533  299.2036
  279.5849  301.3168  274.8486  362.9732  365.1467  228.6829  204.0928  368.5412
  305.3452  359.3838  306.0208  300.4937  335.9907  291.9647  324.6713  353.1491
  313.2034  338.8186  320.0720  352.7014  343.0128  370.1913  351.2292  349.6245
  334.6249  354.9913  355.6458  356.5587  361.9213  349.9843  359.2821  357.5134
  357.6001  350.9191  357.1989  347.6447  356.2491  353.0189  351.7698  343.5142
  346.6907  350.6029  328.0527  336.7230  332.1522  337.5066  346.1214  345.1356
  346.0872  339.2083  343.9185  333.1453  340.9039  340.7553  341.3419  340.7456
  321.1045  336.8305  338.7429  337.0106  332.9149  283.0581  327.1701  335.0731
  331.0146  318.2271  319.6627  332.8199  328.6439  327.2559  330.0931  316.3918
  319.3021  326.9724  312.6363  325.2503  314.4865  321.3982  304.6618  316.9254
  319.2309  309.5530  318.2486  298.5132  318.8737  313.3424  308.6677  318.2901
  317.5267  306.4693  304.2780  303.5951  313.6379  311.7551  311.1439  303.8564
  308.3844  310.7927  281.6794  304.0516  306.6411  298.0792  300.1631  292.8372
  295.6819  285.1958  222.2571  203.4387  283.7213  295.3077  298.7157  285.1017
  300.3470  300.1254  300.7978  299.3428  295.4598  299.3849  298.6417  296.7408
  290.4709  292.7300  292.8489  282.6623  291.7318  291.9444  292.0002  285.7374
  284.1792  285.1824  290.3947  288.1469  281.4476  290.0555  289.5024  286.3481
  283.8310  286.5429  287.0542  283.3648  283.5843  268.6024  279.6070  272.1833
  255.4300  191.4113  173.6782  248.5397  268.3390  277.1416  277.7267  271.0624
  279.2326  275.9786  270.3656  264.7809  276.2097  279.4911  273.9377  260.7920
  195.4860  261.8940  272.7367  276.5213  275.6965  274.1632  272.7796  275.1912
  275.5223  271.9116  261.5624  273.0663  274.3637  272.2665  273.2960  274.3440
  270.9761  263.5648  267.5651  269.6021  261.7027  253.6907  272.0386  268.8015
  263.8441  264.9993  269.2345  262.7323  264.5519  265.3566  262.0567  265.2467
  267.1401  264.2956  263.2590  263.2983  268.1023  248.3762  259.8373  258.0200
  268.2150  253.1610  257.1962  263.4527  258.5565  257.2264  253.6428  257.4390
  251.8460  252.8310  262.5499  251.2481  249.4807  255.3717  228.1490  246.5240
  240.2038  234.9779  240.8945  261.1694  218.5240  239.0870  247.1997  245.4279
  245.5497  257.4224  213.0874  247.5955  249.1001  250.4043  220.5473  241.1868
  220.1113  260.5133  228.0471  236.2901  228.2716  207.5540  256.5494  260.5015
  242.6983  258.6422  237.5476  225.3271  246.3858  261.0529  247.8046  242.3328
  240.7968  246.3463  243.1525  220.9708  176.4964  139.5616  224.0580  241.3775
  225.5990  250.2076  237.8119  239.5906  249.4627  256.8294  255.8639  213.3684
  219.4831  199.5979  253.9220  216.1217  231.0830  208.7461  232.7294  178.8403
  253.7422  253.8297  189.5726  248.6155  188.5803  210.2566  233.4544  224.3155
  229.3012  226.1345  218.4520  244.8334  222.2269  254.2354  232.7721  230.9602
  237.7432  257.6599  255.5649  248.1903  253.7773  262.1299  250.0831  256.6481
  254.9096  260.2822  262.0930  260.6613  245.1477  257.8880  255.2002  261.4173
  263.9110  251.4537  260.2276  265.2889  261.6416  264.4888  258.3282  267.0483
  266.7491  265.4279  265.6639  267.6618  261.6845  267.5605  256.6130  249.6784
  260.1967  266.2979  271.0192  258.6665  268.7137  268.0762  248.7403  263.2245
  262.9576  269.6584  269.6452  261.3372  267.3748  260.1220  269.4801  268.9834
  263.6496  251.9491  264.3583  272.0392  273.1508  267.5254  269.4242  274.0931
  270.4591  273.5813  272.9071  267.2770  269.6507  274.0826  262.1057  265.3026
  267.1740  272.7987  274.1262  272.9463  273.8624  247.3139  272.5060  273.8147
  259.3556  278.2397  254.5775  265.3979  275.7728  271.2910  272.5506  268.7436
  270.0887  273.4180  277.0405  268.5539  282.4203  279.2617  270.4806  283.3198
  267.3766  273.6872  279.4641  279.9323  282.7107  280.2037  279.9927  277.8044
  283.7155  283.9047  281.1436  284.6220  284.3866  285.5359  288.9926  288.6892
  284.2739  288.2975  282.1670  289.4159  287.5044  290.3043  290.1003  277.9595
  289.1935  275.6609  292.7120  291.5466  293.5544  292.4959  293.7043  293.8060
  293.3284  285.4548  287.1349  294.7650  293.8065  287.6373  285.0555  296.8129
  297.3099  297.2495  287.0421  298.0505  298.2347  281.9724  298.2733  290.8712
  286.2962  300.1360  300.7810  299.8488  300.9131  295.6874  301.2880  300.1138
  301.8652  296.1439  278.6679  298.4463  288.2147  303.7648  304.1887  303.7799
  299.9572  304.6279  293.7408  304.0807  297.1899  304.6227  302.5071  292.5524
  298.1789  291.3507  308.4493  308.6509  304.9317  309.1100  288.5350  297.0874
  308.4591  285.2455  296.8821  310.7380  286.5074  300.6402  292.9030  292.7841
  312.1772  258.0933  303.5588  270.4889  253.7579  255.7066  240.8997  280.7640
  190.7265  294.7549  166.6401  286.1028  146.2834  253.4998  151.0283  197.1566
  186.5906  150.1279  214.6113  114.5798  193.3359  208.9740  217.3242  291.2178
  169.4384  130.4378  129.2335  101.5812   79.1731   73.8353   82.9594  136.7498
  135.9418  249.3157  324.6560  321.2813  307.6818  315.6144  326.5089  327.4180
  329.6638  317.1773  329.4111  317.5702  327.4409  330.1488  328.9591  325.3624
  329.5005  317.4820  331.1029  332.4930  330.1034  326.4012  334.4118  332.1953
  335.5572  336.0872  333.9566  319.9846  337.2853  336.4835  327.7156  324.7042
  338.4431  338.9780  336.2848  338.5384  311.1783  332.5570  336.0948  340.3077
  340.6872  339.8452  341.2307  316.0170  332.8144  343.2594  343.5381  344.3450
  338.0535  344.5785  343.6366  341.2826  341.8102  347.4006  347.7620  348.7332
  345.9950  328.4793  349.4026  350.3342  348.5743  350.1006  348.5442  344.5572
  330.3275  346.4432  341.6285  352.9124  350.9305  355.0853  347.0494  355.2274
  355.9958  349.8655  322.6959  354.8930  349.0681  330.1337  354.1489  337.1657
  335.0945  343.6972  361.2118  351.4603  348.8868  354.5358  356.4371  344.4797
  345.0968  330.6734  339.5898  350.0325  354.4188  363.5491  357.2194  358.0283
  357.5280  352.8566  360.0296  356.3660  346.0117  345.8076  365.5412  344.5538
  358.1516  356.2272  351.3596  364.6492  360.7694  360.9545  370.0045  374.4710
  366.1667  349.1580  356.0607  363.4716  351.8349  353.4723  366.9602  360.6879
  333.7932  336.4006  368.8378  332.5168  322.1259  358.4172  344.8374  314.4747
  349.1488  368.1598  370.7650  334.5318  312.9768  297.7419  330.0179  372.4940
  345.0232  371.9199  345.6424  278.8953  361.2354  335.7077  358.8925  383.2447
  298.9821  365.1218  329.7812  361.2279  363.9539  351.4908  296.7344  359.8452
  359.4588  348.8094  327.5426  321.2932  367.0703  359.9200  307.5865  326.0742
  390.6754  358.7374  388.4490  355.2068  386.9208  387.5242  365.8805  386.3252
  394.3422  387.8802  366.8041  305.6483  334.0709  353.7897  308.0822  326.2160
  361.7913  322.5198  307.2189  387.5535  273.6204  300.1769  390.9704  332.0999
  375.8549  308.1465  352.3272  366.9268  361.5569  359.2856  380.4736  374.5347
  407.6742  403.8121  413.2259  408.3384  416.2958  402.1376  385.0721  412.4962
  412.5901  410.2907  419.1795  418.2284  423.0638  413.8434  401.8021  417.4355
  416.1337  425.0294  422.6599  406.9786  416.4531  423.3317  422.0287  417.2597
  418.9010  426.5932  421.1622  431.0696  427.1516  427.3778  425.9713  422.7952
  426.8720  428.7893  418.1427  420.3871  417.7057  423.1295  435.8100  429.2121
  431.6479  433.9644  434.6598  431.7251  419.5768  431.3222  432.3556  430.5249
  422.3464  434.3656  426.6176  435.8083  420.6791  431.2125  441.6176  438.0142
  437.9463  441.9743  424.8332  408.5750  430.3490  442.7013  438.0181  435.8642
  408.6499  425.1022  403.5305  439.8354  439.5220  396.2700  419.4461  434.0499
  425.9685  440.5201  431.6295  393.5528  431.9285  440.5128  407.9441  449.9571
  436.1006  431.8392  438.0166  420.0948  431.4577  447.6770  450.4872  435.7946
  417.4438  424.1840  446.2559  449.1917  445.1751  454.3290  448.7897  440.5523
  452.2415  414.5256  446.0561  416.1071  434.1371  444.6351  432.2860  405.1066
  451.3368  416.3113  428.5913  404.9691  430.1524  447.1562  419.1118  438.3505
  424.7254  431.6729  438.6679  412.3397  435.5088  449.9702  408.6120  435.3161
  406.7210  424.2425  430.1627  410.4082  442.1223  377.4916  443.9036  369.5973
  444.8834  360.0890  439.2158  359.7134  401.8338  403.1107  369.7577  415.0722
  428.2491  418.0384  405.7500  364.8352  345.6013  320.5203  320.7934  269.4889
  375.8373  443.1169  438.6039  432.7901  437.6551  432.7268  417.4830  442.8033
  440.4721  437.4479  440.6948  439.1332  415.7513  413.2014  420.2402  431.6380
  436.9090  434.9572  437.1603  435.9116  419.4906  435.4818  434.1558  433.8928
  421.9613  433.1012  432.5157  423.9131  430.2003  419.1394  429.0135  420.8995
  419.2227  427.1989  423.0953  421.2436  419.9308  418.6463  417.5683  422.7965
  421.0622  415.5084  414.8544  410.8266  415.4995  418.9631  415.8891  417.4538
  415.6300  404.5039  409.1547  395.8885  411.1770  410.5667  410.8766  409.5970
  407.7061  403.9244  404.4817  397.9893  406.2705  385.1441  400.9567  399.5009
  397.0175  398.2116  399.1776  392.2679  399.1603  397.5754  392.3362  397.2324
  395.6202  386.4690  391.8538  393.1581  383.9109  388.0160  364.4390  381.6679
  379.5019  389.0269  384.9854  386.1136  383.4753  373.5295  386.5305  385.4179
  378.6621  370.0159  383.9477  382.4616  382.3009  382.2030  380.5916  380.8720
  379.7644  378.1177  376.6926  347.2487  376.3298  375.8169  373.2383  374.6000
  370.9526  368.7672  369.1676  348.6697  367.9199  370.5401  370.4932  369.4699
  367.2071  368.7309  368.9960  366.3759  365.5521  365.0233  345.7638  365.8480
  358.0344  363.9878  355.9601  335.3205  358.4286  361.0779  356.6221  361.7238
  357.6149  360.7928  360.8700  359.9681  357.8512  359.8761  355.4000  357.3286
  354.5444  341.1955  353.3260  348.7683  355.1703  355.9709  347.2015  345.7961
  352.9055  323.3951  335.2503  353.9366  349.3607  338.6427  349.4226  343.5353
  342.1011  346.1785  347.4482  330.9784  332.1356  328.2932  331.4574  311.9900
  317.5649  289.2128  147.0233  256.1329  302.1634  316.9365  316.4812  329.5350
  331.2844  342.4048  337.9911  331.2799  335.5327  338.5396  345.6217  349.3412
  348.5950  347.6549  338.5577  341.7848  349.3371  349.1750  340.4644  347.0409
  344.5300  349.2625  350.7415  325.7983  328.2080  336.2264  351.5285  349.8110
  353.4187  348.7049  354.8169  351.1456  353.0018  349.4141  327.9305  331.1540
  302.5785  308.2038  341.1691  346.6384  354.1378  352.8784  354.0179  334.2502
  343.5060  350.2976  357.0642  348.2439  339.6197  354.0547  341.0390  344.1653
  360.1672  359.2127  358.0084  313.4555  363.4247  360.7856  360.7669  337.8017
  364.8561  364.8925  333.9492  359.5565  369.7536  370.6324  369.8041  372.4698
  367.8150  332.6494  371.9608  374.4882  361.2635  349.1138  374.3269  377.0825
  376.3752  375.9387  380.2649  352.5430  357.9769  373.8629  376.9394  366.6457
  380.0013  351.9495  381.9987  351.0104  382.1226  387.5417  387.8958  336.8871
  383.6237  390.5450  389.8282  357.7131  389.0325  394.2278  395.7541  397.1619
  388.7444  395.9264  398.2070  387.4905  392.4702  401.8623  400.2484  403.2364
  396.1728  396.7513  405.4780  398.3326  395.6072  392.3454  386.4918  398.1848
  387.4863  411.6217  392.1872  412.2872  414.1837  413.6800  416.2072  403.1764
  401.0838  404.8357  415.7907  412.8277  408.5869  391.6997  398.7214  427.3393
  414.5962  421.3387  419.3091  430.0326  430.0913  409.7238  425.2711  416.8879
  386.8795  420.0353  391.7120  437.4468  426.6422  425.7503  438.2131  437.0293
  436.3511  425.7248  389.4720  427.3249  416.7064  436.5901  442.2477  435.9841
  434.6109  433.2175  448.6728  448.0752  447.9365  448.1005  433.9840  415.3214
  418.5454  423.3136  458.4849  461.3812  453.8273  445.7903  464.0878  463.1306
  439.9101  468.6434  467.9014  455.0497  442.4841  455.4846  438.4615  428.9064
  433.3299  475.7527  471.1221  459.8446  429.0959  447.6857  467.6860  465.5340
  472.1958  447.6995  481.7029  485.2258  455.2250  441.5823  459.4327  484.8694
  478.6589  486.3594  480.7119  485.4127  473.4343  466.3244  480.0060  463.5359
  466.2156  493.4898  494.4863  494.2002  496.7326  498.0860  491.7254  499.1156
  474.8818  494.8899  502.0341  496.1340  494.1960  501.9854  434.8915  501.1795
  488.0170  490.3651  502.3580  499.6956  507.2406  486.8984  506.4502  482.5836
  491.4189  488.0688  509.8154  478.4731  440.7808  512.0945  473.7431  485.5274
  416.9408  460.4480  509.4346  490.8052  506.2685  471.8430  516.1059  500.3867
  514.0164  492.2709  506.7573  504.9218  519.4164  465.7659  519.3002  511.7389
  443.7930  466.5725  520.6427  521.2148  505.7396  508.1170  502.1758  517.7379
  513.2800  519.8994  449.6854  517.9585  519.2321  524.0028  503.9101  527.6219
  520.2299  513.1937  529.6223  506.3351  523.8448  525.4568  450.8389  497.7910
  527.6753  524.4022  516.3124  532.1151  515.3989  515.4870  517.6849  518.6642
  525.9272  517.4794  512.7781  521.0942  526.6619  534.5275  489.5338  528.6395
  535.4823  537.3594  536.5486  536.0063  537.8228  536.7534  533.1758  496.2387
  528.0879  538.7596  537.5157  537.2451  534.8361  508.4924  526.9946  534.5234
  541.1407  538.4415  538.9719  534.7883  538.9171  540.8771  519.2559  536.7557
  541.0633  541.2469  537.3887  538.9391  542.1483  538.1664  534.7443  538.2319
  517.2449  540.7376  497.6678  504.7312  500.4967  531.1337  539.0837  503.5000
  537.7112  506.3455  533.1587  542.4404  495.4747  519.1398  531.5187  541.3641
  507.0664  540.0240  535.6641  512.9682  530.0308  541.8007  542.9357  536.7075
  526.6198  534.2246  520.3173  537.3716  502.6606  513.8394  541.0310  543.8940
  532.6978  505.2905  519.0153  542.3532  546.0480  542.4426  542.5255  528.5927
  537.0093  533.4885  547.8262  543.0024  546.4801  542.8416  521.9240  525.7057
  546.0995  535.7166  523.2444  545.6033  495.3373  532.4193  531.0107  542.4921
  546.2418  520.5192  531.5080  559.0054  552.4600  557.3039  524.5879  553.5065
  551.1917  509.0866  553.1514  548.6160  566.7510  535.5781  552.9752  562.8336
  551.2175  541.3152  562.1342  543.1195  519.0499  566.5298  569.5629  558.1706
  566.0721  567.5108  551.6249  575.6654  574.6390  565.0309  540.0688  559.5846
  468.7688  454.1250  577.5527  524.3864  493.5302  368.5913  570.4240  574.8592
  598.3035  567.2337  600.6434  594.8618  597.3144  608.1846  609.8224  615.6556
  609.3497  623.7657  621.7672  622.7375  617.9124  608.5292  633.0740  631.0692
  595.2482  637.4496  599.3256  555.9088  628.3330  638.5302  616.4612  635.2335
  652.0717  652.6111  641.7125  648.3491  658.2603  666.1959  668.1816  670.2901
  670.2469  654.9363  676.4844  664.3976  671.5521  675.7176  678.7291  685.5580
  679.4649  688.6541  689.8600  689.0614  689.3847  698.4077  697.3555  702.5085
  650.6804  683.6546  703.2324  701.0187  705.2365  683.1678  707.2677  685.5962
  687.5677  687.7964  720.9381  719.3126  720.1622  687.5160  711.2166  723.6198
  710.3751  706.7052  676.0743  727.5155  730.4755  708.8185  691.5283  685.4940
  705.6311  677.8825  685.6249  732.4023  749.0549  747.2368  711.4667  743.8436
  714.3693  752.8028  748.5372  757.1501  753.8551  761.5944  749.2494  672.7942
  726.3705  750.0364  764.2110  750.8901  766.7078  679.0823  710.5767  749.8586
  771.2510  743.5182  740.8604  772.5515  774.4595  765.2781  759.4087  776.7946
  776.8672  765.0649  780.3685  781.4003  783.9330  742.2150  779.7368  784.0753
  786.0615  767.1212  792.0013  783.8615  794.2853  781.6722  784.1451  774.6738
  767.5549  784.5833  748.0189  786.4781  672.6724  767.9212  649.4688  745.8844
  727.2197  768.5433  783.8091  766.2245  731.8871  792.0793  749.3422  805.9795
  773.3754  768.7553  800.1055  781.6363  766.4330  722.6703  787.3220  742.2950
  749.4260  787.4501  714.5997  800.1870  770.4346  805.3116  810.3353  756.0717
  810.3451  814.7076  789.8390  789.4211  787.0436  743.8465  787.5181  794.2155
  771.3915  730.3459  782.4552  699.0027  705.3998  816.7534  716.2918  765.7328
  798.5573  785.8055  757.7655  800.7321  803.1948  781.1276  782.7834  785.1378
  750.7186  766.1384  807.1781  741.6644  763.0267  773.3400  757.7165  805.9875
  798.1459  809.1950  790.9001  785.0484  782.7933  687.3146  769.9285  799.1602
  776.9350  778.6844  771.4893  777.3866  581.5383  763.6748  808.5067  800.4055
  800.0557  799.8076  795.3832  803.3170  804.0248  790.7470  657.4566  707.9102
  761.6263  672.6639  800.0292  797.3194  675.6757  769.1973  733.7885  777.9018
  706.0046  653.5710  621.1572  772.7659  759.0189  785.7110  724.8735  786.0850
  744.3930  788.3873  708.8890  783.6359  781.7819  626.7079  791.0059  684.8801
  767.5671  736.5570  713.6283  771.7211  722.0730  729.5116  773.5983  743.9555
  743.4368  766.1096  775.7277  718.0457  738.5176  763.7986  780.0487  766.1768
  771.5375  723.4023  765.3237  727.2047  726.6007  768.6765  757.1264  750.8250
  725.0956  760.5364  690.1487  743.0662  730.3088  756.2113  746.5217  690.3079
  637.0604  714.9848  717.2513  750.8444  731.3033  746.3454  748.9045  748.4676
  746.3307  722.3812  729.4128  721.3228  635.0854  748.0192  699.4211  735.8748
  752.3232  637.8078  753.3704  719.4711  701.3962  672.6034  751.2679  745.4290
  664.4106  738.3837  718.4584  691.7079  736.8165  730.3766  721.2752  721.8038
  647.4498  745.1677  747.8314  694.1898  725.3381  627.5770  737.1196  712.1267
  636.9033  603.8323  742.9034  669.4152  716.7849  722.7034  711.9994  734.5136
  714.2733  691.6826  742.6511  643.1553  652.7363  724.6517  734.5764  741.6154
  737.5818  703.1085  576.3565  728.3541  721.8054  732.7787  743.9866  730.9229
  715.0840  568.8199  657.2247  736.6846  737.2985  725.9876  742.7704  742.9399
  735.5893  679.1028  694.4547  626.4373  663.5390  743.3611  698.6443  573.6830
  743.3309  743.1943  722.4487  579.1827  733.4792  722.3892  658.1966  737.3575
  716.2632  728.5309  663.5357  692.3854  709.3433  744.8273  634.2030  617.7649
  744.3617  672.8738  590.0136  653.9864  626.6419  732.1168  700.4610  674.5096
  702.5331  600.1628  727.1774  691.4764  734.2797  661.3727  682.5688  719.5447
  700.2046  734.0365  726.0853  756.9741  750.0031  639.0829  742.0796  704.7302
  724.8730  733.0106  738.5298  758.6588  760.9027  723.4761  705.2194  605.8037
  611.7643  752.9469  662.9803  761.5195  627.4236  770.4377  701.2443  739.3347
  772.7869  767.7451  772.0314  774.8836  774.9730  779.4597  707.9698  761.4756
  761.8013  670.6605  705.2490  758.2617  689.3414  770.8428  739.1284  763.8812
  647.9400  648.3598  767.0496  764.4387  733.1923  766.5607  779.1712  687.3669
  776.5711  749.4781  705.0139  427.6778  763.1835  725.8931  620.7797  748.6768
  749.6041  764.7647  775.2087  772.9385  792.0417  675.3134  772.1429  779.0936
  784.4215  803.6458  794.6083  805.5690  788.0927  744.6367  791.4004  800.8094
  800.1563  691.7896  753.5310  796.8803  669.2749  689.8418  747.8326  791.1160
  787.3430  776.5576  821.2466  820.4245  818.9000  775.1529  816.7529  823.5011
  762.8116  627.5415  787.7411  715.7888  747.0398  815.9157  811.0859  800.5851
  600.0864  809.2354  675.2992  792.3021  668.2246  464.6705  733.9673  792.3858
  566.5552  676.8574  649.3184  690.7185  718.1678  807.6399  831.1295  835.8627
  829.7875  800.5593  731.7499  774.3584  800.8264  831.0153  711.1776  812.9374
  774.6143  787.1116  844.8320  850.9092  783.0212  775.9820  848.4310  810.9022
  836.8854  819.6282  827.0698  762.9742  783.9241  612.4503  836.5590  835.7484
  764.4193  794.9917  561.6503  736.1394  733.4584  816.0026  816.8086  853.8073
  825.2394  856.0602  795.6232  779.9029  728.2871  747.4553  856.1867  852.9883
  847.1009  786.7994  820.2955  627.8604  861.1786  657.9589  706.6794  885.8519
  747.7893  875.0997  838.1721  808.1920  796.7476  818.8542  739.2783  777.4166
  811.3919  667.3608  729.7587  886.5600  722.7039  821.7654  845.9385  766.1487
  541.1953  333.3374  710.7302  814.9755  823.1907  845.6015  852.1866  821.4380
  859.0698  817.6498  500.7486  433.3509  704.5859  852.4238  576.3990  479.0321
  605.9106  750.1937  780.0374  843.6875  725.9704  875.4293  867.4991  822.1086
  871.7349  857.9529  783.6477  811.4084  821.3041  794.8875  799.8293  877.3687
  870.7222  723.2048  791.5058  824.6002  873.4927  815.4037  712.9547  835.1569
  857.1596  649.4430  839.3776  772.7163  886.6026  882.8483  765.1376  889.7071
  799.7449  875.1724  753.2777  855.3854  821.8176  822.3149  763.2255  760.5764
  887.3460  827.1664  868.8728  904.0606  898.6981  909.6320  890.0509  849.2858
  892.7556  889.3685  898.0266  773.4217  833.3523  890.1269  741.5904  904.8204
  839.6420  838.9880  878.5368  917.3339  886.4023  769.6761  703.3264  856.8351
  814.7764  897.0005  897.8250  927.9157  895.0704  844.6723  926.7109  861.8538
  865.0666  892.0278  896.6674  891.3497  754.6743  866.4589  827.9239  755.0651
  669.6641  922.2417  920.7842  849.6168  791.9774  922.4812  840.4388  807.6420
  939.0555  906.9944  803.9142  842.2888  903.6830  769.8512  860.4112  935.4859
  930.0281  954.2092  876.0209  934.0959  892.6375  912.6472  901.7479  917.8676
  900.7573  876.0130  783.8887  918.3278  796.1371  754.9378  937.2798  958.8327
  930.4526  875.5713  922.1320  684.6838  676.6948  854.6592  745.8398  926.4747
  831.0552  738.1161  942.4301  946.2711  929.4338  862.8729  924.1265  895.5612
  836.8141  752.9682  946.4322  812.9075  936.8919  830.1168  765.9074  916.1567
  853.2546  785.3453  761.8179  872.5492  877.2221  701.5223  813.6995  748.4526
  902.1970  861.6058  916.6739  944.3088  766.8873  723.5237  800.9494  857.4389
  865.2502  797.4060  887.9706  849.5324  858.0134  911.2776  887.3943  923.6859
  957.7641  787.3884  948.3392  889.0624  826.3223  961.2315  863.1033  957.9213
  908.4222  742.3354  858.7433  722.9772  752.0787  852.1627  855.8139  930.2703
  825.9114  942.9576  907.2746  943.9202  959.9387  880.4553  975.6883  890.8245
  832.6440  905.6326  859.5419  963.8356  817.7429  902.2288  970.1835  925.4847
  947.2805  953.0826  976.0536  922.8898  493.8820  826.6946  962.9278  886.4924
  932.3018  881.3762  977.1075  935.8332  918.2454  952.2371  958.0735  865.8152
  878.8378  969.4705  982.2875  888.2485  959.9230  937.5400  769.1139  743.3207
  840.3607  920.9246  921.2643  777.6579  831.8785  946.7178  974.6848  882.7878
  991.4401  890.2865  908.0330  979.7628  834.4670  761.5662  929.8342  845.1159
  855.6498  598.0528  698.1267  803.5852  903.5239  951.7448  974.0492  912.0439
  915.1494  875.4139  889.9839  734.3191  896.9081  877.0403  958.7175  977.7968
  945.1461  886.0812  813.8965  948.8418  949.5089  862.1816  958.4385  962.3629
  957.5662  935.0667  984.4748  949.0727  918.2110  916.3347  509.2642  884.6328
  835.4869  878.2263  801.9636  840.6008  812.5786  930.4259  920.8929  877.9703
  852.2871  960.6132  973.8481  749.6651  943.4614  834.7262  868.9917  885.8972
  846.6200  714.2995  675.7726  816.6560  907.4173  853.4536  854.5219  819.8227
  841.8818  768.6932  731.4864  697.9402  302.4129  612.3083  644.5981  806.2698
  818.4416  862.2744  692.3093  857.7514  890.3853  893.0141  884.5104  955.5062
  912.9470  846.1277  891.4646  940.4070  921.9226  959.8959  885.3793  838.9764
  926.9436  906.5599  794.7886  895.0602  926.9655  961.7952  880.2289  975.9617
  912.6647  912.5980  923.2723  868.9269  981.9276  821.0641  967.5329  938.3245
  972.4266  927.1825  894.4046  796.4099  960.1464  950.2973  948.3937  986.4112
  985.4221  916.0877  988.0362  958.9922  941.1866  927.8085  950.3817  940.0439
  890.9773  973.2343  877.0312  899.4851  903.6364  985.3687  841.2286  958.8575
  933.3582  982.8621  940.3266  886.4736  907.7319  866.1021  981.6627  957.3503
  994.6771  988.4421  987.0046  866.0845  976.8235  900.9144  875.8368  884.2770
  947.8743  823.0839  892.3524  986.6398  946.3832  803.9136  976.4356  972.0480
  920.3098  952.2130  980.4609  993.6290  902.0549  963.6005  999.9999  953.0785
  879.7108  844.3897  958.7700  967.3716  961.4119  853.2386  904.6624  790.8440
  870.0300  819.8785  971.1211  790.9083  872.6906  981.8097  942.2078  928.6477
  921.2909  884.2888  875.3879  908.2776  838.1234  937.8597  879.6183  954.7095
  924.7280  972.7292  881.2758  987.0376  975.0524  888.5167  903.5821  989.0600
  932.6660  919.9525  844.4906  978.8929  932.7777  948.3497  740.9714  887.6411
  975.2740  919.1483  886.8743  931.4194  815.8416  855.7656  866.2264  833.5767
  804.9278  956.4031  962.3102  966.6837  978.0865  921.7489  919.3511  930.5500
  987.1481  974.5892  915.6650  925.8294  988.0876  872.2086  765.2542  908.0325
  909.7233  885.4083  985.7089  785.6356  834.4380  879.6256  772.0188  920.4508
  904.3411  891.6295  819.8633  679.4160  854.5160  887.6291  888.2360  795.3794
  871.7598  902.8433  946.3303  925.3187  910.7690  903.5851  908.2994  797.3317
  944.9764  886.4695  899.7671  898.9402  918.8401  903.9840  894.5571  916.3621
  921.8895  866.5597  864.7253  828.7687  915.0245  786.2622  868.5271  963.5814
  959.7819  912.8433  880.2900  844.9568  866.5742  934.7502  913.5175  921.7859
  808.5944  695.2559  687.5645  801.0764  936.0204  915.1734  805.9885  949.8900
  885.6102  937.6479  982.9471  961.3991  943.8282  865.9879  844.3627  938.0848
  732.8463  960.1553  934.6478  865.5103  938.0034  886.3746  810.6545  861.3896
  804.5872  760.9279  903.6632  917.1652  842.1710  950.0994  953.8760  905.9297
  833.4401  895.0357  859.8695  820.3487  963.0231  884.6313  943.0997  888.7574
  837.5448  972.0410  963.3345  879.3379  862.2473  954.9716  943.3907  927.8579
  898.2425  862.8323  963.2504  893.5813  875.6799  986.3064  920.4896  837.0564
  872.1132  961.1179  876.7468  848.8738  976.6577  901.4832  789.3221  964.9036
  801.8329  955.3365  934.1891  960.6190  886.4935  912.6171  906.1728  789.4037
  903.6526  919.8805  826.7822  899.6913  789.1604  781.3644  968.1627  824.3090
  832.8672  908.5960  736.7052  910.0251  858.5060  866.9406  801.5959  841.1675
  908.2675  891.7148  932.3416  875.3694  895.7410  687.9543  859.7834  863.9330
  813.3727  868.1331  717.9700  832.9040  816.5333  896.8283  871.3713  921.2332
  889.1935  926.6812  876.0733  924.4970  943.8412  733.2397  801.1105  957.8205
  911.8999  834.7271  968.7670  838.5073  846.5029  768.2338  856.2036  800.4571
  923.0492  917.6149  916.6094  861.0024  907.8914  867.2393  898.2537  832.8434
  768.1339  839.7693  745.3225  919.6196  756.2853  884.4767  837.9565  578.7930
  857.2917  850.4730  779.8354  845.7573  838.6094  792.6131  908.4437  849.9586
  849.8560  811.4167  828.5168  894.9807  873.9783  918.9788  931.2079  580.7281
  778.6426  724.0555  718.6553  932.3934  787.8753  684.6646  746.1519  691.0530
  758.5485  732.2327  716.9256  863.4584  763.6370  911.8510  733.5751  842.8906
  925.2153  829.9767  887.1091  877.2906  749.1706  842.8513  894.9634  793.5402
  770.8665  874.4512  828.9172  851.9246  890.4619  929.8733  844.7219  819.4105
  890.3969  873.7278  896.5345  888.0507  895.4016  899.6484  880.3113  795.3888
  725.6455  862.3690  844.9783  827.0822  869.9908  766.6823  769.0035  824.1705
  613.4711  862.2021  835.8139  799.9894  774.8535  712.2435  714.2183  774.3655
  847.1549  877.0807  788.1978  899.6471  764.9550  880.9351  601.1873  732.2449
  665.4333  693.4091  812.5212  841.3472  878.5082  875.4545  684.8807  814.8758
  850.8878  864.0150  730.6216  821.8450  718.0942  751.2256  646.4294  710.8964
  833.0344  622.6276  831.9094  694.7898  769.4492  782.7676  719.6949  536.0252
  727.9240  694.5848  573.9117  675.1750  699.8745  716.1400  629.5656  522.1481
  664.4752  736.3646  755.2078  739.7029  784.8219  695.6719  758.3636  846.8695
  660.6169  700.8115  832.0511  807.6733  733.1696  647.0177  626.0219  615.8452
  711.7849  755.6362  757.7491  784.3939  761.7023  750.1921  703.3085  522.7809
  629.2086  684.9286  674.6096  723.2271  762.5262  553.8114  730.8942  754.5618
  796.0318  577.4459  779.1851  583.0532  781.2421  679.3239  661.9088  606.7490
  680.0956  782.5029  762.9156  755.9119  701.9644  625.9149  651.1888  650.3774
  379.1509  695.6412  728.8941  755.6285  733.0647  697.7280  673.0138  656.0770
  527.4332  595.0332  653.4681  675.9724  523.0348  286.7078  623.5216  663.2785
  766.8749  446.5531  555.4966  587.5911  681.3154  663.3398  667.6522  693.2018
  592.5711  501.9953  610.0535  597.6039  675.4671  557.2792  538.1749  542.1121
  598.5014  567.2870  546.3436  591.2792  664.4679  428.8356  396.2175  195.9892
  362.1905  636.0306  653.7426  543.5923  643.8018  610.7334  624.1457  606.1989
  626.0018  455.3751  496.5506  505.9448  577.5818  594.0820  614.3294  561.0981
  537.0515  629.8130  655.8618  449.4719  607.4383  619.4405  693.4123  656.9263
  608.5974  535.8393  623.5335  687.8368  560.3224  506.9033  547.3755  557.8940
  650.8855  571.5438  549.0430  529.1310  549.2935  604.9981  442.8215  296.4212
  508.7212  597.6188  672.7454  595.9138  517.0563  562.8997  523.3787  603.1991
  511.9313  467.9860  456.8856  529.6760  424.5045  299.7166  267.0309  375.1494
  423.6442  399.8932  427.0820  601.4309  571.3294  580.8476  542.5757  542.6303
  589.4539  560.7150  484.3737  563.6235  575.1158  582.9340  549.3969  435.3679
  270.5050  265.7252  447.9878  307.6589  444.4017  589.2891  570.9736  452.9931
  617.8096  571.1046  536.5410  619.1248  576.4557  615.3180  403.5692  402.5743
  525.4874  326.7875  369.1129  290.2581  313.6026  288.8760  302.4684  179.8846
  283.0537  391.7167  309.3801  327.5358  368.2423  315.3006  229.8911  297.8123
  399.6928  278.7834  248.2623  191.9748  433.1990  365.7086  364.4467  468.5826
  379.5146  355.1898  528.8699  485.7460  394.0351  340.1615  405.3627  292.8179
  332.3445  436.2847  511.1009  363.1589  375.9774  361.7354  416.2588  572.2288
  378.7681  395.8010  485.7497  342.1363  328.5897  491.1079  495.8260  448.2728
  465.1725  480.7721  316.2908  314.4739  342.7800  452.7806  303.4718  140.7505
  410.0632  358.8008  446.8462  428.2260  344.5464  429.5668  505.2932  462.1079
  415.2292  431.1102  487.2398  455.2496  330.3963  298.0202  228.5226  421.9369
  328.2516  432.2739  501.6014  429.8358  344.8674  372.2540  269.4196  441.4984
  425.2600  474.4423  310.0724  257.5592  371.9436  368.6705  361.2882  333.4592
  398.7640  424.9218  376.6346  468.9683  311.9344  370.0561  383.2595  447.9106
  356.4141  328.3857  320.3719  363.3977  410.7322  324.6400  205.3635  340.8196
  450.5541  321.3900  300.9309  414.8790  395.7221  388.7958  362.1846  368.7796
  414.2631  313.3144  124.9266  141.2463  246.8362  342.5868  294.6807  317.3564
  387.7215  336.7426  396.2038  372.5108  353.1600  332.3935  372.5706  299.0659
  393.0731  252.2164  246.7612  382.4783  326.7477  395.1211  361.9137  354.9422
  345.3021  273.0016  353.3282  321.0500  394.8589  324.5963  306.1201  338.7201
  300.0472  305.7826  347.3607  315.2783  165.8713  330.4023  277.6016  317.0433
  259.4539  142.4492  351.8723  274.9529  295.2948  245.4794  295.7950  339.9047
  365.9840  336.1336  227.6679  290.1130  332.1732  332.0992  249.3227  264.7465
  203.6443  241.1910  326.5820  306.5302  305.7153  249.7988  281.4571  265.8293
  236.8984  297.7493  320.3790  269.9012  288.5861  220.7602  279.1180  277.7800
  266.9505  242.0062  284.4583  222.5916  214.8770  223.4708  282.5168  278.2533
  279.9815  295.0534  313.6277  227.7252  207.6928  318.0870  272.3597  297.5908
  298.7260  266.8933  304.3759  315.3365  221.9648  271.5234  302.2442  237.9620
  282.4584  244.5431  215.6049  214.5525  300.4127  204.7695  180.0981  280.9059
  286.8089  190.7520  286.5367  239.4183  242.9019  217.1221  292.5334  217.3186
  271.0265  250.6861  241.0841  268.1469  143.5325  167.4626  210.8110  226.4320
  283.7946  246.5644  254.5210  260.2012  259.9432  233.5940  226.9156  260.2492
  258.7105  182.1649  174.8821  249.9730  169.4886  129.2316  240.0484  238.9863
  209.9211  214.6309  222.8449  168.3896  240.1814  202.1782  202.1406  242.9787
  234.1971  176.0598  208.3908  211.0727  208.2112  242.3694  197.4344  195.0785
  149.4138  218.2172  235.6350  213.5364  228.7231  189.9666  202.2566  229.4396
  179.9301  196.5488  186.6385  164.6822  179.6648  182.8731  185.5958  196.7470
  171.8538  163.0234  203.2712  159.9101  150.1752  163.6107  135.2264  125.9650
   68.1498  108.8534  139.7929  161.9094  152.0977  144.5239  172.3858  145.9341
  135.7038  165.6840  150.0490  193.8511  188.7427  111.6763  177.7706  177.2914
  170.1193  171.3024  171.9777  176.9473  183.1201  155.5868  145.1216  156.1801
  136.8979  141.9111  122.2680  156.7078  147.5509  169.1572  167.9230  135.4929
  117.3735  138.0189  101.3408  123.9376   92.8394  127.6553  144.0364  129.9884
  138.7711  159.6494  122.2850   46.7829  110.7229  136.3214  153.6292  143.5327
  132.6409  115.5847   96.5856  105.0544  132.5224  132.4021   84.1214   34.4565
  111.7393  111.0684  124.4435  127.7088  130.6312  112.3332   97.0592   96.0129
   76.8417  121.8421  122.3367   91.7322   99.0197  108.5366  112.5579   86.7060
  115.1527  121.8523  116.3229  114.3073  106.0406  105.8944  114.0014  100.7851
   68.8651   22.0343   76.0236   85.4120   83.9169  115.8503  118.1707   87.7785
   92.6551   89.6528  108.5779   93.2171  111.4782  107.0304   97.9916  103.7309
   69.8966   87.7247   71.2009   84.9468   50.8668   83.8919   83.4833   44.7007
   82.7279   88.5845   98.1650   86.9948   88.0767   83.5874   83.0056   81.1933
   66.3350   84.5877   82.8819   83.8353   68.2411   86.2486   74.0032   69.1469
   85.8604   89.7353   59.1680   50.7334   73.7674   84.7397   72.5717   66.1454
   60.4592   79.4598   66.0034   68.4932   74.0215   61.6969   60.6556   67.9432
   66.9917   65.1780   60.3676   46.7166   55.7825   24.6609   57.2302   64.0545
   70.7109   60.5222   57.5206   50.7491   57.0813   64.1539   60.9807   50.2004
   44.1040   38.3215   53.7965   48.0254   48.5727   49.1046   45.5991   56.4415
   50.0249   47.5951   45.7868   50.1166   35.6422   47.7425   48.8402   53.9218
   37.2309   32.3078   43.2370   38.9659   42.5115   29.0529   39.7207   35.2146
   35.2043   38.3453   40.7096   41.3205   34.3888   33.2675   33.6742   31.8884
   21.9263   26.4412   28.6086   22.4589   20.7813   16.8014   18.7778   14.1637
   13.0192   11.8824    8.2387    6.2855    4.3801    3.4645    5.8930    7.8493
    8.6199   11.6110   15.4092   14.7412   16.8854   14.5422   15.4340    9.0440
   15.2047   22.5965   25.7857   26.5192   21.3467   22.8824   22.1386   14.1807
   23.4978   21.0149   24.6851   24.6860   15.5432   14.3203   21.9359   20.3995
   23.2333   19.8113   20.1990   15.1578   15.7692   15.4847   17.9285   19.3016
   16.0279   11.9083    7.6220   11.0461   14.2978   12.7888   10.7383   10.7224
   12.3641   11.3863   10.1035    7.4037    7.2624    6.1669    5.5654    4.1518
    3.4910    2.6852    1.9167    2.2112    2.9393    3.9128    4.2875    4.3453
    4.7439    5.8635    7.2008    4.1024    8.5948    9.6804    8.4590    8.4370
   11.0626   11.4370   11.6231    5.2380   11.1465    9.2103    6.7289    5.5804
   12.0889    9.6510    7.1508   12.5375    9.4329    8.5638    8.7199   11.5146
    9.6319    9.9048    8.1872   11.1593    8.8341   11.0229    7.0859    8.1480
    8.7942    8.8913    8.8529    7.7087    7.6978    5.9188    3.3949    5.0421
    8.5857    6.0131    4.2355    5.3692    7.0803    8.6777    5.6421    5.6873
    4.7602    7.3615    4.3325    6.6106    7.9080    5.9376    2.9958    5.4490
    5.9370    5.4577    4.2233    5.9990    4.7186    5.1267    4.3394    3.9603
    2.8351    1.8810    4.6075    3.9976    1.9613    1.8375    3.2414    4.0980
    3.9004    4.8459    1.1808    2.1016    3.0266    3.3609    3.0306    3.2080
    3.9218    1.2298    1.9086    3.7039    3.2294    3.2310    3.7634    3.6789
    3.1350    2.7331    1.9546    1.4675    1.9156    1.4193    2.1087    2.2314
    2.4521    2.7044    2.3214    2.7204    2.7928    2.6615    1.8806    2.6670
    2.4770    2.0340    3.0525    2.6075    1.9164    1.4721    1.5579    0.6924
    1.3946    1.2402    1.5426    2.2070    1.6878    0.8972    1.5819    2.1436
    1.4146    1.7995    1.7895    1.4491    2.3003    1.8225    1.2629    1.0201
    1.7561    1.7334    2.0989    1.9116    1.4720    1.6936    1.3042    1.2880
    0.0000    0.0000    0.0000    0.0000    0.0000    0.0000    0.0000    0.0000
break
